num crossings	time (s)	maj axis (mm)	min axis (mm)	theta (rad )	slope (V/s)
1851	2925.927697	68.944002	-3.194261	1.482126	28.504796
1853	2927.976808	67.673944	-3.410404	1.492102	28.951256
1857	2932.108978	66.812914	-3.489400	1.461322	26.888032
1859	2934.171547	67.300752	-3.467085	1.457094	27.107369
1861	2936.227362	67.693774	-3.440641	1.459228	28.101188
1863	2938.278556	67.703078	-3.463859	1.463523	28.542597
1867	2942.379416	67.476326	-3.518317	1.470129	27.158732
1869	2944.432599	67.383340	-3.521169	1.470045	29.096596
1871	2946.487547	67.162117	-3.535860	1.467898	28.430728
1873	2948.544116	66.971349	-3.548326	1.465392	28.526418
1877	2952.661805	64.386186	-12.347492	1.307850	27.308224
1879	2954.708026	62.437995	-31.749467	1.266923	7.305824
1881	2956.770640	62.166265	-31.759699	1.273357	6.065682
1883	2958.830065	62.186193	-31.725437	1.279098	6.242858
1887	2962.951728	62.618437	-31.767936	1.272284	6.007724
1889	2964.999650	25.516691	-43.305821	0.539921	4.720385
1891	2966.318392	67.612843	-5.097314	1.546741	29.840211
1893	2968.379581	67.115262	-8.279033	1.524868	25.893456
1897	2972.470003	68.563765	-14.270010	1.578543	23.217398
1899	2974.526478	68.533035	-14.254935	1.577723	21.337836
1901	2976.581581	68.441781	-14.244829	1.576957	21.901843
1903	2978.637907	68.324874	-14.217610	1.575753	21.963895
1905	2980.693586	68.279309	-14.220951	1.574630	21.091126
1909	2984.806111	68.085497	-14.153651	1.571794	23.021305
1911	2986.861003	68.061198	-14.139436	1.570091	22.573952
1913	2988.916072	67.966860	-14.114887	1.567898	23.564491
1915	2990.970398	67.936346	-14.114801	1.565510	21.364135
1919	2995.072499	67.837860	-14.104735	1.558919	21.779537
1921	2997.122277	67.788384	-14.145816	1.553693	22.038084
1923	2999.175564	67.601729	-14.151405	1.547993	22.443155
1925	3001.232133	67.263823	-14.092100	1.543118	23.204696
1927	3003.293197	66.850492	-14.042400	1.543066	24.223432
1929	3005.355902	66.618197	-14.039818	1.547198	25.553661
1931	3007.418071	66.532853	-14.028944	1.550301	25.206803
1933	3009.477932	66.630024	-14.036017	1.550201	23.268898
1935	3011.536425	66.670781	-14.024334	1.547446	24.325023
1937	3013.593005	66.699400	-14.018178	1.543742	24.634317
1939	3015.647660	66.658793	-14.010693	1.539814	24.050261
1943	3019.752537	66.825059	-13.961821	1.536968	24.334566
1945	3021.802035	66.857261	-13.901925	1.539345	24.260084
1947	3023.852463	66.688449	-13.873096	1.543483	23.903626
1949	3025.904770	66.331964	-13.801391	1.545372	22.781754
1951	3027.961445	65.974996	-13.822247	1.543016	21.691426
1953	3030.022171	65.671747	-13.810561	1.537275	21.192067
1955	3032.083174	65.556404	-13.763200	1.532274	19.984643
1957	3034.142998	65.572105	-13.753059	1.528350	20.490555
1959	3036.201655	65.572235	-13.726448	1.525909	20.328721
1961	3038.258945	65.552126	-13.709216	1.524194	19.841957
1963	3040.314340	65.539645	-13.692774	1.522906	19.787051
1965	3042.369301	65.522162	-13.706569	1.521251	19.774803
1969	3046.474351	65.464404	-13.701408	1.515641	19.930445
1971	3048.526676	65.481924	-13.751160	1.511823	20.884804
1973	3050.580020	65.352598	-13.756824	1.506337	21.087248
1975	3052.636809	65.073263	-13.728888	1.501805	22.557131
1977	3054.696653	64.691140	-13.685817	1.500571	22.345022
1979	3056.758562	64.476250	-13.692366	1.503779	23.003365
1981	3058.820537	64.288829	-13.680906	1.506155	22.554318
1983	3060.880521	64.272825	-13.685311	1.506385	23.235811
1985	3062.938402	64.296318	-13.678345	1.504206	22.531376
1987	3064.995402	64.324218	-13.683119	1.501456	22.071742
1989	3067.049728	64.393662	-13.684237	1.498268	22.118377
1993	3071.153637	64.576818	-13.636721	1.497113	23.963897
1995	3073.203346	64.516154	-13.573021	1.499678	22.855651
1997	3075.254841	64.335572	-13.508002	1.502646	22.134740
1999	3077.309006	64.021134	-13.487740	1.503010	20.577858
2001	3079.367116	63.697196	-13.464732	1.499861	19.628559
2003	3081.426727	63.489093	-13.453891	1.495094	19.156597
2005	3083.486570	63.369611	-13.427610	1.490738	19.366411
2007	3085.546000	63.372952	-13.394810	1.487603	19.024804
2009	3087.603599	63.342972	-13.382371	1.485706	20.224142
2011	3089.660019	63.350643	-13.360025	1.483668	19.071919
2013	3091.715018	63.327777	-13.359491	1.481834	18.677277
2015	3093.768819	63.362562	-13.372202	1.479425	19.164692
2017	3095.821223	63.382835	-13.385646	1.476312	19.849875
2019	3097.874004	63.346823	-13.334157	1.472321	19.455439
2021	3099.927763	63.242363	-13.409826	1.466727	20.403875
2023	3101.985548	63.014517	-13.376899	1.463739	22.069198
2025	3104.045935	62.671832	-13.337545	1.462856	21.085174
2027	3106.107076	62.451704	-13.336048	1.465095	21.030345
2029	3108.168702	62.312644	-13.323126	1.466363	21.675079
2031	3110.227784	62.287738	-13.337111	1.466361	21.729505
2033	3112.285721	62.310154	-13.332937	1.464659	21.172082
2035	3114.341782	62.382435	-13.322542	1.462433	20.967521
2037	3116.395796	62.442409	-13.294325	1.459837	20.955051
2039	3118.447646	62.569133	-13.265635	1.459719	21.924073
2041	3120.498029	62.585778	-13.202011	1.460906	21.119340
2043	3122.549376	62.493220	-13.152729	1.463430	21.032623
2045	3124.602103	62.286966	-13.101966	1.465736	20.285871
2047	3126.657527	61.993480	-13.094665	1.465216	20.391136
2049	3128.716527	61.725191	-13.085599	1.461396	18.913817
2051	3130.775583	61.560891	-13.043205	1.457612	18.083728
2053	3132.835004	61.470314	-13.026629	1.453568	19.535111
2055	3134.893239	61.443121	-13.019525	1.451095	18.438228
2057	3136.949685	61.434511	-13.014016	1.449112	18.507793
2059	3139.005451	61.431528	-12.998918	1.447036	17.967397
2061	3141.059793	61.434523	-12.998882	1.444392	18.363510
2063	3143.113499	61.448799	-13.000844	1.441904	18.561380
2065	3145.166008	61.441444	-12.985293	1.438149	19.191199
2067	3147.219890	61.359896	-12.992479	1.433255	18.879045
2069	3149.276577	61.149138	-12.920239	1.429574	19.718601
2071	3151.336061	60.883496	-12.974118	1.427746	20.496705
2073	3153.397406	60.618377	-12.963026	1.428624	21.033862
2075	3155.458442	60.511526	-12.965889	1.430301	20.570759
2077	3157.517450	60.399189	-12.975743	1.430625	20.117010
2079	3159.575355	60.390736	-12.977895	1.429391	20.717876
2081	3161.631302	60.456019	-12.948824	1.427534	19.911287
2083	3163.685736	60.506982	-12.935836	1.426238	20.140833
2085	3165.737774	60.641950	-12.927126	1.426670	19.805852
2087	3167.788903	60.620092	-12.874798	1.427563	21.197919
2089	3169.840275	60.552220	-12.856084	1.430595	19.893556
2091	3171.893583	60.358716	-12.785762	1.432239	19.198443
2093	3173.949389	60.066732	-12.768615	1.431210	19.001982
2095	3176.007298	59.835650	-12.780559	1.428186	17.879672
2097	3178.066483	59.681323	-12.758730	1.424641	17.903835
2099	3180.125274	59.618805	-12.751099	1.421238	17.974879
2101	3182.182908	59.554915	-12.732653	1.418786	17.494219
2103	3184.239207	59.560986	-12.717522	1.416738	17.594418
2105	3186.294137	59.562901	-12.720242	1.414273	17.708800
2107	3188.348383	59.559975	-12.713239	1.411762	18.386977
2109	3190.401870	59.590209	-12.734695	1.408720	17.467560
2111	3192.455296	59.503650	-12.683435	1.403997	17.666512
2113	3194.510807	59.425996	-12.743045	1.400148	18.578355
2115	3196.568701	59.228678	-12.722596	1.397314	18.430212
2117	3198.628899	58.948770	-12.693306	1.396741	19.468177
2119	3200.689307	58.717592	-12.676952	1.397577	18.881832
2121	3202.749162	58.617947	-12.689353	1.398641	19.061073
2123	3204.808020	58.585230	-12.689543	1.397885	19.338560
2125	3206.864601	58.596434	-12.687957	1.396869	18.973021
2127	3208.919294	58.654099	-12.675920	1.395334	19.162352
2129	3210.972683	58.770931	-12.657832	1.395700	19.514568
2131	3213.024637	58.803149	-12.612409	1.395599	19.322350
2133	3215.075797	58.778181	-12.561572	1.397761	18.995672
2135	3217.128619	58.668736	-12.517545	1.399865	18.469627
2137	3219.183015	58.423937	-12.490688	1.400846	17.133263
2139	3221.240476	58.209660	-12.482079	1.398989	17.422577
2143	3225.357414	57.878306	-12.448514	1.392482	16.427363
2145	3227.415464	57.801521	-12.463175	1.389500	16.568283
2147	3229.472446	57.772273	-12.431764	1.387337	16.482963
2149	3231.528419	57.789546	-12.443802	1.385220	16.492463
2151	3233.582086	57.794603	-12.451552	1.382429	16.834326
2153	3235.636273	57.842315	-12.470791	1.380153	16.519692
2155	3237.690348	57.825673	-12.461796	1.376340	17.180597
2157	3239.745040	57.772138	-12.462063	1.372296	17.507693
2159	3241.801464	57.620259	-12.453439	1.368643	17.452665
2161	3243.861400	57.350963	-12.412971	1.366560	17.444549
2165	3247.981010	56.980899	-12.398135	1.369023	19.340758
2167	3250.039677	56.915971	-12.415011	1.368633	17.732612
2169	3252.096746	56.887307	-12.417580	1.367919	17.993164
2171	3254.152101	56.942962	-12.402634	1.366857	18.223997
2173	3256.206077	57.018987	-12.394585	1.367106	18.557660
2175	3258.258675	57.073581	-12.374531	1.367672	18.032709
2177	3260.310566	57.072570	-12.318601	1.369296	17.940420
2179	3262.362486	56.981162	-12.275035	1.371465	17.465922
2181	3264.416617	56.784917	-12.266906	1.372390	17.536226
2183	3266.473427	56.516950	-12.247608	1.370622	16.481719
2185	3268.531899	56.358966	-12.233936	1.367508	16.688320
2187	3270.590051	56.251624	-12.245530	1.365103	15.556528
2189	3272.647323	56.116492	-12.222526	1.361747	15.314443
2191	3274.705599	56.154366	-12.227604	1.359976	16.094730
2193	3276.760535	56.140916	-12.214955	1.357527	15.793777
2195	3278.815349	56.164525	-12.210425	1.355136	15.817499
2197	3280.868540	56.165137	-12.174706	1.352150	15.844760
